# dimensionless total lensed [l(l+1)/2pi] C_l's
# for l=2 to 2500, i.e. number of multipoles equal to 2499
#
# -> if you prefer output in CAMB/HealPix/LensPix units/order, set 'format' to 'camb' in input file
# -> if you don't want to see such a header, set 'headers' to 'no' in input file
# -> for CMB lensing (phi), these are C_l^phi-phi for the lensing potential.
#    Remember the conversion factors:
#    C_l^dd (deflection) = l(l+1) C_l^phi-phi
#    C_l^gg (shear/convergence) = 1/4 (l(l+1))^2 C_l^phi-phi
#
# 1:l     2:TT                     3:EE                     4:TE                     5:BB                     6:phiphi                 7:TPhi                   8:Ephi               
    2       1.319837707821e-10       6.278406151890e-15       4.008052136852e-13       2.486234831987e-19       8.040341659264e-09       4.664455719871e-10      -2.160369218852e-12 
    3       1.248463912574e-10       9.845728911305e-15       4.955335671643e-13       4.974150583343e-19       4.997166907788e-09       3.332552058859e-10      -1.838362587025e-12 
    4       1.178489034158e-10       1.057282142738e-14       5.026237483899e-13       8.293934161589e-19       3.495607750659e-09       2.542414705789e-10      -1.399211268253e-12 
    5       1.124510506215e-10       8.922051090111e-15       4.608400487050e-13       1.244768347560e-18       2.622048695649e-09       2.021744542455e-10      -9.732479600076e-13 
    6       1.086054267759e-10       6.249625172656e-15       3.964551588685e-13       1.743790212986e-18       2.056985685607e-09       1.653873290349e-10      -6.054531327215e-13 
    7       1.060182375945e-10       3.787309005940e-15       3.270809629844e-13       2.326742695850e-18       1.665841566896e-09       1.381698906897e-10      -3.150770573469e-13 
    8       1.044933268789e-10       2.137655519761e-15       2.629478333862e-13       2.993934743601e-18       1.381560896248e-09       1.173874353816e-10      -1.063791265313e-13 
    9       1.036977209927e-10       1.307757880277e-15       2.098316627184e-13       3.745692000865e-18       1.166949789702e-09       1.011299639697e-10       2.611811885629e-14 
   10       1.035182305790e-10       9.995220528761e-16       1.702933960552e-13       4.582348056409e-18       1.000061180005e-09       8.814161843929e-11       9.434784085578e-14 
   11       1.037872194192e-10       8.978865022330e-16       1.444302916853e-13       5.504235830224e-18       8.440867261950e-10       7.783436453546e-11       1.135903276882e-13 
   12       1.043968894409e-10       8.203563333325e-16       1.307535894956e-13       6.511679418525e-18       7.391327881314e-10       6.882416360523e-11       1.003008688715e-13 
   13       1.052831580741e-10       7.234645101718e-16       1.267671155213e-13       7.604986693390e-18       6.527740978028e-10       6.151835661063e-11       6.965208516382e-14 
   14       1.064093027501e-10       6.353370094036e-16       1.296139000427e-13       8.784442920845e-18       5.807796234603e-10       5.538053873572e-11       3.321980898137e-14 
   15       1.076978746351e-10       5.880339916731e-16       1.365432546379e-13       1.005030561793e-17       5.200604210646e-10       5.004940511161e-11      -4.885673708594e-16 
   16       1.091212479392e-10       5.873535017193e-16       1.452322248829e-13       1.140280081727e-17       4.683381338186e-10       4.545834266374e-11      -2.610543119323e-14 
   17       1.106542746347e-10       6.177135846767e-16       1.541096615076e-13       1.284212084918e-17       4.238911187875e-10       4.147005197536e-11      -4.160353962584e-14 
   18       1.123101945816e-10       6.594481483213e-16       1.623132648959e-13       1.436842295619e-17       3.852501321955e-10       3.800388269372e-11      -4.739907654924e-14 
   19       1.140782762929e-10       7.086289416646e-16       1.695969433632e-13       1.598183385013e-17       3.518218676355e-10       3.498964926263e-11      -4.525724300397e-14 
   20       1.158856926060e-10       7.672540034369e-16       1.759359681948e-13       1.768244405575e-17       3.223369126839e-10       3.227247454651e-11      -3.816693205290e-14 
   21       1.177497346990e-10       8.443840322507e-16       1.816978739252e-13       1.947032239547e-17       2.963441571299e-10       2.982215099845e-11      -2.866527775176e-14 
   22       1.196864031325e-10       9.510174755434e-16       1.874260237758e-13       2.134550935765e-17       2.732327956489e-10       2.761511546152e-11      -1.942914976964e-14 
   23       1.216870059797e-10       1.089195097556e-15       1.934397660993e-13       2.330803474325e-17       2.526930758505e-10       2.564999733778e-11      -1.193122957567e-14 
   24       1.237182311861e-10       1.257052607216e-15       1.999530236523e-13       2.535791098434e-17       2.342581902005e-10       2.390587616450e-11      -7.164510162319e-15 
   25       1.257918022064e-10       1.452154916805e-15       2.069389620681e-13       2.749515416913e-17       2.177164356801e-10       2.235273823169e-11      -5.164290690086e-15 
   26       1.279174552102e-10       1.671477500440e-15       2.142293441632e-13       2.971977590217e-17       2.027734210188e-10       2.094148763142e-11      -5.480665738734e-15 
   27       1.300876248636e-10       1.914258858163e-15       2.215437779948e-13       3.203180192261e-17       1.892543097418e-10       1.964773330207e-11      -7.430051303295e-15 
   28       1.322817974306e-10       2.180223932400e-15       2.285227045610e-13       3.443126681382e-17       1.769306339401e-10       1.844769959603e-11      -1.015081082605e-14 
   29       1.345073594393e-10       2.469312270358e-15       2.348628499321e-13       3.691823655051e-17       1.657417604834e-10       1.734305477440e-11      -1.302232266249e-14 
   30       1.367702684529e-10       2.781315490949e-15       2.402258735122e-13       3.949279477637e-17       1.555695752127e-10       1.633510961816e-11      -1.537684703558e-14 
   31       1.390667043182e-10       3.116107363911e-15       2.442678955615e-13       4.215504268377e-17       1.462092002370e-10       1.541631122051e-11      -1.655913186158e-14 
   32       1.413986913141e-10       3.475009358769e-15       2.468834170895e-13       4.490511626359e-17       1.376140318671e-10       1.457952856280e-11      -1.657150777581e-14 
   33       1.437618180456e-10       3.859956935031e-15       2.480536444266e-13       4.774317983441e-17       1.297250825167e-10       1.381039703478e-11      -1.567719814218e-14 
   34       1.461451379903e-10       4.273023200338e-15       2.477926861207e-13       5.066942207745e-17       1.224340332537e-10       1.308996878198e-11      -1.420866085593e-14 
   35       1.485496135371e-10       4.715915114357e-15       2.461717989321e-13       5.368404844324e-17       1.157045566826e-10       1.241581191094e-11      -1.245124176744e-14 
   36       1.509744973165e-10       5.190318709212e-15       2.433081906819e-13       5.678729027068e-17       1.094834981888e-10       1.178734026765e-11      -1.072876125053e-14 
   37       1.534158488476e-10       5.697831198170e-15       2.393210665588e-13       5.997939592800e-17       1.036909079504e-10       1.120141365521e-11      -9.362647926335e-15 
   38       1.558809292009e-10       6.239249411867e-15       2.341929189044e-13       6.326058533303e-17       9.831247232822e-11       1.065770294528e-11      -8.409392062911e-15 
   39       1.583775690259e-10       6.815038269414e-15       2.278634318364e-13       6.663108320773e-17       9.333178069457e-11       1.015455685212e-11      -7.837615990593e-15 
   40       1.609097253491e-10       7.425507441749e-15       2.202658631508e-13       7.009113286287e-17       8.870219894075e-11       9.687217525969e-12      -7.596432764760e-15 
   41       1.634775461042e-10       8.070903457681e-15       2.113270616003e-13       7.364097441645e-17       8.436325890877e-11       9.249448100336e-12      -7.615915006483e-15 
   42       1.660786996609e-10       8.751748084938e-15       2.009689524215e-13       7.728076791797e-17       8.030259269365e-11       8.839706480413e-12      -7.812335397853e-15 
   43       1.687067004418e-10       9.468591897851e-15       1.891065363062e-13       8.101064730150e-17       7.650971447537e-11       8.456523465749e-12      -8.082076236379e-15 
   44       1.713500016519e-10       1.022191718964e-14       1.756467787387e-13       8.483074092874e-17       7.295742139786e-11       8.096637777130e-12      -8.298432587557e-15 
   45       1.739967843757e-10       1.101216941544e-14       1.605044585944e-13       8.874115024942e-17       6.961159059927e-11       7.756126537211e-12      -8.343415706687e-15 
   46       1.766520354239e-10       1.183987152810e-14       1.436566543986e-13       9.274187899132e-17       6.646720357910e-11       7.434532933257e-12      -8.217741519810e-15 
   47       1.793248509216e-10       1.270553747409e-14       1.251036158751e-13       9.683288221133e-17       6.352082467566e-11       7.131732044480e-12      -7.961385493386e-15 
   48       1.820235425981e-10       1.360963832181e-14       1.048541683479e-13       1.010140839355e-16       6.075973250395e-11       6.846699720190e-12      -7.623780847509e-15 
   49       1.847555123922e-10       1.455260055429e-14       8.292610944467e-14       1.052853756034e-16       5.816122820268e-11       6.577444433457e-12      -7.264354367939e-15 
   50       1.875261543709e-10       1.553476666575e-14       5.933866375109e-14       1.096466129520e-16       5.569951689139e-11       6.321669499480e-12      -6.941414973148e-15 
   51       1.903355000111e-10       1.655626830317e-14       3.408651191395e-14       1.140976092790e-16       5.337015897487e-11       6.079129740080e-12      -6.674020673003e-15 
   52       1.931804455660e-10       1.761711573919e-14       7.159397756877e-15       1.186381376618e-16       5.117106013153e-11       5.849796714017e-12      -6.470687011023e-15 
   53       1.960554780589e-10       1.871722916007e-14      -2.145052338877e-14       1.232679307683e-16       4.909515077416e-11       5.633151286716e-12      -6.340117641434e-15 
   54       1.989525041158e-10       1.985643518438e-14      -5.174866172450e-14       1.279866792273e-16       4.713005068335e-11       5.428149854029e-12      -6.291192035558e-15 
   55       2.018636546453e-10       2.103452482813e-14      -8.374052017395e-14       1.327940633436e-16       4.526187074234e-11       5.233548337099e-12      -6.329542835918e-15 
   56       2.047909069153e-10       2.225145223792e-14      -1.174400637307e-13       1.376898611988e-16       4.348849239512e-11       5.049045798309e-12      -6.446320403311e-15 
   57       2.077385529935e-10       2.350717922968e-14      -1.528633890210e-13       1.426738645514e-16       4.180899966986e-11       4.874365762351e-12      -6.626615608792e-15 
   58       2.107103793020e-10       2.480161710420e-14      -1.900264310496e-13       1.477458475237e-16       4.021966071742e-11       4.708903930788e-12      -6.852483639401e-15 
   59       2.137096113917e-10       2.613462555990e-14      -2.289450395969e-13       1.529055662715e-16       3.871375363049e-11       4.551708344945e-12      -7.102798833684e-15 
   60       2.167388587172e-10       2.750601160558e-14      -2.696350556159e-13       1.581527586547e-16       3.728139226276e-11       4.401459548812e-12      -7.353109517207e-15 
   61       2.198001334139e-10       2.891552303076e-14      -3.121097352822e-13       1.634871930923e-16       3.591228557318e-11       4.256839063726e-12      -7.581139553748e-15 
   62       2.228950364919e-10       3.036282956356e-14      -3.563711736508e-13       1.689088286909e-16       3.460513346969e-11       4.117776338918e-12      -7.785064433575e-15 
   63       2.260245156270e-10       3.184753553493e-14      -4.024170827541e-13       1.744176906370e-16       3.336004047450e-11       3.984447764886e-12      -7.969098521723e-15 
   64       2.291887430154e-10       3.336918371293e-14      -4.502432664725e-13       1.800138253895e-16       3.217568880500e-11       3.856905692378e-12      -8.138243662003e-15 
   65       2.323870624965e-10       3.492725404280e-14      -4.998436127748e-13       1.856973019104e-16       3.104925727148e-11       3.735070916121e-12      -8.298323178532e-15 
   66       2.356179366753e-10       3.652116238703e-14      -5.512100859578e-13       1.914682128954e-16       2.997634017484e-11       3.618725158561e-12      -8.456015877275e-15 
   67       2.388788940448e-10       3.815025926546e-14      -6.043327188866e-13       1.973266760046e-16       2.895086620424e-11       3.507503553600e-12      -8.618890047580e-15 
   68       2.421675008593e-10       3.981381187422e-14      -6.591980019698e-13       2.032728326520e-16       2.796672718418e-11       3.401005670396e-12      -8.793198501330e-15 
   69       2.454846236250e-10       4.151094872811e-14      -7.157836883647e-13       2.093068413364e-16       2.702322883792e-11       3.299171509076e-12      -8.976668872634e-15 
   70       2.488317357220e-10       4.324070148642e-14      -7.740629173936e-13       2.154288851642e-16       2.612060387113e-11       3.201968539164e-12      -9.164306812732e-15 
   71       2.522099249537e-10       4.500201902421e-14      -8.340056767848e-13       2.216391753177e-16       2.525836314329e-11       3.109275496327e-12      -9.350482850906e-15 
   72       2.556198668777e-10       4.679376574480e-14      -8.955787539084e-13       2.279379522241e-16       2.443525829549e-11       3.020877897827e-12      -9.528909133554e-15 
   73       2.590617981370e-10       4.861471989216e-14      -9.587456870126e-13       2.343254867237e-16       2.364924437833e-11       2.936463557975e-12      -9.692616163259e-15 
   74       2.625354897911e-10       5.046357186335e-14      -1.023466716459e-12       2.408020812375e-16       2.289744247974e-11       2.855618103580e-12      -9.833929537864e-15 
   75       2.660402206465e-10       5.233892252094e-14      -1.089698735959e-12       2.473680709362e-16       2.217610235284e-11       2.777820489403e-12      -9.944446689540e-15 
   76       2.695752594956e-10       5.423933778286e-14      -1.157398903889e-12       2.540237694817e-16       2.148153696914e-11       2.702572591285e-12      -1.001697153571e-14 
   77       2.731414723069e-10       5.616352761491e-14      -1.226536345308e-12       2.607692922464e-16       2.081320553816e-11       2.629825181509e-12      -1.005177714561e-14 
   78       2.767399610232e-10       5.811019676405e-14      -1.297082505180e-12       2.676047028300e-16       2.017112740564e-11       2.559621845479e-12      -1.005144814665e-14 
   79       2.803715646833e-10       6.007799085173e-14      -1.369007703464e-12       2.745300656572e-16       1.955494284368e-11       2.491970088114e-12      -1.001904074075e-14 
   80       2.840368431889e-10       6.206549584030e-14      -1.442281161407e-12       2.815454460093e-16       1.896389560869e-11       2.426839598677e-12      -9.958099591969e-15 
   81       2.877360610707e-10       6.407123749948e-14      -1.516871027825e-12       2.886509100560e-16       1.839681549936e-11       2.364160515591e-12      -9.872674714186e-15 
   82       2.914691712554e-10       6.609368087280e-14      -1.592744405401e-12       2.958465248868e-16       1.785210091465e-11       2.303821691269e-12      -9.767338358706e-15 
   83       2.952357988320e-10       6.813122974401e-14      -1.669867376967e-12       3.031323585434e-16       1.732770141172e-11       2.245668956933e-12      -9.647201901913e-15 
   84       2.990354961518e-10       7.018225459199e-14      -1.748202455465e-12       3.105084874728e-16       1.682161808738e-11       2.189545312728e-12      -9.517100977019e-15 
   85       3.028685922776e-10       7.224518294884e-14      -1.827700390516e-12       3.179750202415e-16       1.633353823943e-11       2.135422954185e-12      -9.378958664338e-15 
   86       3.067354552466e-10       7.431842311261e-14      -1.908307045436e-12       3.255320778288e-16       1.586344097837e-11       2.083290053354e-12      -9.234014104047e-15 
   87       3.106362217565e-10       7.640033693681e-14      -1.989965836042e-12       3.331797867091e-16       1.541109488803e-11       2.033109764174e-12      -9.083618252154e-15 
   88       3.145707854924e-10       7.848923977560e-14      -2.072617713636e-12       3.409182790072e-16       1.497604928640e-11       1.984819191922e-12      -8.929236789047e-15 
   89       3.185387854535e-10       8.058340042904e-14      -2.156201147995e-12       3.487476926559e-16       1.455762548656e-11       1.938328362667e-12      -8.772453028044e-15 
   90       3.225395942796e-10       8.268104108837e-14      -2.240652110364e-12       3.566681715513e-16       1.415490805752e-11       1.893519192717e-12      -8.614970823944e-15 
   91       3.265723065784e-10       8.478033728120e-14      -2.325904056442e-12       3.646798657102e-16       1.376673608513e-11       1.850244458068e-12      -8.458617481575e-15 
   92       3.306357272518e-10       8.687941781678e-14      -2.411887909369e-12       3.727829314260e-16       1.339169443298e-11       1.808326763859e-12      -8.305346664345e-15 
   93       3.347287240415e-10       8.897639138710e-14      -2.498534563604e-12       3.809775975004e-16       1.302845060704e-11       1.767600851971e-12      -8.156921663892e-15 
   94       3.388513711729e-10       9.106943106580e-14      -2.585782864264e-12       3.892643749938e-16       1.267684228667e-11       1.728050040982e-12      -8.013904400293e-15 
   95       3.430039569328e-10       9.315670247584e-14      -2.673572802010e-12       3.976438794574e-16       1.233693796172e-11       1.689688496891e-12      -7.876519037516e-15 
   96       3.471866281930e-10       9.523633857285e-14      -2.761843116447e-12       4.061167687180e-16       1.200870196108e-11       1.652519293572e-12      -7.744956614709e-15 
   97       3.513993837360e-10       9.730643995638e-14      -2.850531313721e-12       4.146837439416e-16       1.169199045769e-11       1.616533977120e-12      -7.619373567114e-15 
   98       3.556420675817e-10       9.936507518096e-14      -2.939573684112e-12       4.233455506966e-16       1.138654747342e-11       1.581712130196e-12      -7.499890246993e-15 
   99       3.599143623140e-10       1.014102810673e-13      -3.028905319621e-12       4.321029800174e-16       1.109200088399e-11       1.548020936373e-12      -7.386589444542e-15 
  100       3.642157824065e-10       1.034400630133e-13      -3.118460131570e-12       4.409568694678e-16       1.080785842397e-11       1.515414744482e-12      -7.279514908813e-15 
  101       3.685456675495e-10       1.054523953055e-13      -3.208170868192e-12       4.499081042044e-16       1.053350369164e-11       1.483834632960e-12      -7.178669868629e-15 
  102       3.729031759758e-10       1.074452214297e-13      -3.297969132221e-12       4.589576180402e-16       1.026819215395e-11       1.453207974189e-12      -7.084015553507e-15 
  103       3.772872777873e-10       1.094164543828e-13      -3.387785398489e-12       4.681063945079e-16       1.001104715147e-11       1.423447998851e-12      -6.995469714574e-15 
  104       3.816969635558e-10       1.113640346504e-13      -3.477549421276e-12       4.773553884029e-16       9.761259182112e-12       1.394474350433e-12      -6.912878755928e-15 
  105       3.861319165909e-10       1.132861123920e-13      -3.567191481131e-12       4.867052760527e-16       9.518723016263e-12       1.366278849328e-12      -6.835933026932e-15 
  106       3.905919194667e-10       1.151808905611e-13      -3.656641340061e-12       4.961566731381e-16       9.283479599329e-12       1.338867841681e-12      -6.764237276447e-15 
  107       3.950766426010e-10       1.170465703695e-13      -3.745827888427e-12       5.057102113886e-16       9.055518718414e-12       1.312241800012e-12      -6.697334272828e-15 
