# dimensionless total [l(l+1)/2pi] C_l's
# for l=2 to 3000, i.e. number of multipoles equal to 2999
#
# -> if you prefer output in CAMB/HealPix/LensPix units/order, set 'format' to 'camb' in input file
# -> if you don't want to see such a header, set 'headers' to 'no' in input file
# -> for CMB lensing (phi), these are C_l^phi-phi for the lensing potential.
#    Remember the conversion factors:
#    C_l^dd (deflection) = l(l+1) C_l^phi-phi
#    C_l^gg (shear/convergence) = 1/4 (l(l+1))^2 C_l^phi-phi
#
# 1:l     2:TT                     3:EE                     4:TE                     5:BB                     6:phiphi                 7:TPhi                   8:Ephi               
    2       1.319832634262e-10       6.278157528360e-15       4.008052182524e-13       0.000000000000e+00       8.040341659264e-09       4.664455719871e-10      -2.160369218852e-12 
    3       1.248453787492e-10       9.845231495786e-15       4.955335874982e-13       0.000000000000e+00       4.997166907788e-09       3.332552058859e-10      -1.838362587025e-12 
    4       1.178472207431e-10       1.057199203170e-14       5.026238067422e-13       0.000000000000e+00       3.495607750659e-09       2.542414705789e-10      -1.399211268253e-12 
    5       1.124485355558e-10       8.920806314024e-15       4.608401814271e-13       0.000000000000e+00       2.622048695649e-09       2.021744542455e-10      -9.732479600076e-13 
    6       1.086019204405e-10       6.247881361348e-15       3.964554193523e-13       0.000000000000e+00       2.056985685607e-09       1.653873290349e-10      -6.054531327215e-13 
    7       1.060135849526e-10       3.784982214201e-15       3.270814242543e-13       0.000000000000e+00       1.665841566896e-09       1.381698906897e-10      -3.150770573469e-13 
    8       1.044873771342e-10       2.134661483723e-15       2.629485902993e-13       0.000000000000e+00       1.381560896248e-09       1.173874353816e-10      -1.063791265313e-13 
    9       1.036903278933e-10       1.304011997498e-15       2.098328337488e-13       0.000000000000e+00       1.166949789702e-09       1.011299639697e-10       2.611811885629e-14 
   10       1.035092526235e-10       9.949393712906e-16       1.702951246535e-13       0.000000000000e+00       1.000061180005e-09       8.814161843929e-11       9.434784085578e-14 
   11       1.037765199637e-10       8.923817183014e-16       1.444327472186e-13       0.000000000000e+00       8.440867261950e-10       7.783436453546e-11       1.135903276882e-13 
   12       1.043843367099e-10       8.138437994406e-16       1.307569677885e-13       0.000000000000e+00       7.391327881314e-10       6.882416360523e-11       1.003008688715e-13 
   13       1.052686250811e-10       7.158582511235e-16       1.267716390306e-13       0.000000000000e+00       6.527740978028e-10       6.151835661063e-11       6.965208516382e-14 
   14       1.063926671381e-10       6.265507475943e-16       1.296198177094e-13       0.000000000000e+00       5.807796234603e-10       5.538053873572e-11       3.321980898137e-14 
   15       1.076790184464e-10       5.779811803120e-16       1.365508414678e-13       0.000000000000e+00       5.200604210646e-10       5.004940511161e-11      -4.885673708594e-16 
   16       1.091000573288e-10       5.759473652575e-16       1.452417813127e-13       0.000000000000e+00       4.683381338186e-10       4.545834266374e-11      -2.610543119323e-14 
   17       1.106306395421e-10       6.048671654166e-16       1.541215126140e-13       0.000000000000e+00       4.238911187875e-10       4.147005197536e-11      -4.160353962584e-14 
   18       1.122840083684e-10       6.450743584468e-16       1.623277594768e-13       0.000000000000e+00       3.852501321955e-10       3.800388269372e-11      -4.739907654924e-14 
   19       1.140494354044e-10       6.926406169021e-16       1.696144531131e-13       0.000000000000e+00       3.518218676355e-10       3.498964926263e-11      -4.525724300397e-14 
   20       1.158540961617e-10       7.495639637647e-16       1.759568865685e-13       0.000000000000e+00       3.223369126839e-10       3.227247454651e-11      -3.816693205290e-14 
   21       1.177152842054e-10       8.249051367735e-16       1.817226154343e-13       0.000000000000e+00       2.963441571299e-10       2.982215099845e-11      -2.866527775176e-14 
   22       1.196490021157e-10       9.296626850407e-16       1.874550229297e-13       0.000000000000e+00       2.732327956489e-10       2.761511546152e-11      -1.942914976964e-14 
   23       1.216465597807e-10       1.065877526180e-15       1.934734768067e-13       0.000000000000e+00       2.526930758505e-10       2.564999733778e-11      -1.193122957567e-14 
   24       1.236746466754e-10       1.231685582112e-15       1.999919182601e-13       0.000000000000e+00       2.342581902005e-10       2.390587616450e-11      -7.164510162319e-15 
   25       1.257449877092e-10       1.424652020872e-15       2.069835308290e-13       0.000000000000e+00       2.177164356801e-10       2.235273823169e-11      -5.164290690086e-15 
   26       1.278673203319e-10       1.641752625228e-15       2.142800943317e-13       0.000000000000e+00       2.027734210188e-10       2.094148763142e-11      -5.480665738734e-15 
   27       1.300340805118e-10       1.882226239644e-15       2.216012331718e-13       0.000000000000e+00       1.892543097418e-10       1.964773330207e-11      -7.430051303295e-15 
   28       1.322247557734e-10       2.145798193323e-15       2.285874036812e-13       0.000000000000e+00       1.769306339401e-10       1.844769959603e-11      -1.015081082605e-14 
   29       1.344467341461e-10       2.432408433257e-15       2.349353461434e-13       0.000000000000e+00       1.657417604834e-10       1.734305477440e-11      -1.302232266249e-14 
   30       1.367059747405e-10       2.741849013999e-15       2.403067329128e-13       0.000000000000e+00       1.555695752127e-10       1.633510961816e-11      -1.537684703558e-14 
   31       1.389986590073e-10       3.073994176110e-15       2.443576955558e-13       0.000000000000e+00       1.462092002370e-10       1.541631122051e-11      -1.655913186158e-14 
   32       1.413268131959e-10       3.430165858637e-15       2.469827437019e-13       0.000000000000e+00       1.376140318671e-10       1.457952856280e-11      -1.657150777581e-14 
   33       1.436860280854e-10       3.812300011637e-15       2.481630900914e-13       0.000000000000e+00       1.297250825167e-10       1.381039703478e-11      -1.567719814218e-14 
   34       1.460653595000e-10       4.222470258725e-15       2.479128470229e-13       0.000000000000e+00       1.224340332537e-10       1.308996878198e-11      -1.420866085593e-14 
   35       1.484657724468e-10       4.662384085370e-15       2.463032702424e-13       0.000000000000e+00       1.157045566826e-10       1.241581191094e-11      -1.245124176744e-14 
   36       1.508865224197e-10       5.133728068004e-15       2.434515628995e-13       0.000000000000e+00       1.094834981888e-10       1.178734026765e-11      -1.072876125053e-14 
   37       1.533236719836e-10       5.638099993433e-15       2.394769212431e-13       0.000000000000e+00       1.036909079504e-10       1.120141365521e-11      -9.362647926335e-15 
   38       1.557844852393e-10       6.176297321116e-15       2.343618209844e-13       0.000000000000e+00       9.831247232822e-11       1.065770294528e-11      -8.409392062911e-15 
   39       1.582767960163e-10       6.748785635911e-15       2.280459238345e-13       0.000000000000e+00       9.333178069457e-11       1.015455685212e-11      -7.837615990593e-15 
   40       1.608045647471e-10       7.355875304023e-15       2.204624600019e-13       0.000000000000e+00       8.870219894075e-11       9.687217525969e-12      -7.596432764760e-15 
   41       1.633679428626e-10       7.997813602831e-15       2.115382442880e-13       0.000000000000e+00       8.436325890877e-11       9.249448100336e-12      -7.615915006483e-15 
   42       1.659646018231e-10       8.675123183285e-15       2.011951582123e-13       0.000000000000e+00       8.030259269365e-11       8.839706480413e-12      -7.812335397853e-15 
   43       1.685880591001e-10       9.388355582203e-15       1.893481508528e-13       0.000000000000e+00       7.650971447537e-11       8.456523465749e-12      -8.082076236379e-15 
   44       1.712267710513e-10       1.013799411408e-14       1.759041287063e-13       0.000000000000e+00       7.295742139786e-11       8.096637777130e-12      -8.298432587557e-15 
   45       1.738689218487e-10       1.092448535267e-14       1.607778042341e-13       0.000000000000e+00       6.961159059927e-11       7.756126537211e-12      -8.343415706687e-15 
   46       1.765195007401e-10       1.174835359301e-14       1.439461826930e-13       0.000000000000e+00       6.646720357910e-11       7.434532933257e-12      -8.217741519810e-15 
   47       1.791876060597e-10       1.261011426109e-14       1.254094327407e-13       0.000000000000e+00       6.352082467566e-11       7.131732044480e-12      -7.961385493386e-15 
   48       1.818815516756e-10       1.351024001181e-14       1.051762902933e-13       0.000000000000e+00       6.075973250395e-11       6.846699720190e-12      -7.623780847509e-15 
   49       1.846087415923e-10       1.444915902510e-14       8.326445492464e-14       0.000000000000e+00       5.816122820268e-11       6.577444433457e-12      -7.264354367939e-15 
   50       1.873745718030e-10       1.542721562797e-14       5.969304643443e-14       0.000000000000e+00       5.569951689139e-11       6.321669499480e-12      -6.941414973148e-15 
   51       1.901790753593e-10       1.644454351234e-14       3.445664100496e-14       0.000000000000e+00       5.337015897487e-11       6.079129740080e-12      -6.674020673003e-15 
   52       1.930191498869e-10       1.750115515852e-14       7.544872653987e-15       0.000000000000e+00       5.117106013153e-11       5.849796714017e-12      -6.470687011023e-15 
   53       1.958892836317e-10       1.859697310738e-14      -2.105022067699e-14       0.000000000000e+00       4.909515077416e-11       5.633151286716e-12      -6.340117641434e-15 
   54       1.987813842855e-10       1.973182648361e-14      -5.133417436202e-14       0.000000000000e+00       4.713005068335e-11       5.428149854029e-12      -6.291192035558e-15 
   55       2.016875838416e-10       2.090550891929e-14      -8.331262045701e-14       0.000000000000e+00       4.526187074234e-11       5.233548337099e-12      -6.329542835918e-15 
   56       2.046098612615e-10       2.211797713968e-14      -1.169996440114e-13       0.000000000000e+00       4.348849239512e-11       5.049045798309e-12      -6.446320403311e-15 
   57       2.075525104607e-10       2.336919562066e-14      -1.524114627767e-13       0.000000000000e+00       4.180899966986e-11       4.874365762351e-12      -6.626615608792e-15 
   58       2.105193196970e-10       2.465907844989e-14      -1.895641377311e-13       0.000000000000e+00       4.021966071742e-11       4.708903930788e-12      -6.852483639401e-15 
   59       2.135135163451e-10       2.598748824231e-14      -2.284736495188e-13       0.000000000000e+00       3.871375363049e-11       4.551708344945e-12      -7.102798833684e-15 
   60       2.165377116727e-10       2.735423505564e-14      -2.691559748889e-13       0.000000000000e+00       3.728139226276e-11       4.401459548812e-12      -7.353109517207e-15 
   61       2.195939199149e-10       2.875906971625e-14      -3.116245075934e-13       0.000000000000e+00       3.591228557318e-11       4.256839063726e-12      -7.581139553748e-15 
   62       2.226837454340e-10       3.020166449953e-14      -3.558814716681e-13       0.000000000000e+00       3.460513346969e-11       4.117776338918e-12      -7.785064433575e-15 
   63       2.258081397637e-10       3.168162616880e-14      -4.019247076410e-13       0.000000000000e+00       3.336004047450e-11       3.984447764886e-12      -7.969098521723e-15 
   64       2.289672791980e-10       3.319849994553e-14      -4.497501503340e-13       0.000000000000e+00       3.217568880500e-11       3.856905692378e-12      -8.138243662003e-15 
   65       2.321605119233e-10       3.475176824741e-14      -4.993518210429e-13       0.000000000000e+00       3.104925727148e-11       3.735070916121e-12      -8.298323178532e-15 
   66       2.353863051522e-10       3.634084942658e-14      -5.507218197184e-13       0.000000000000e+00       2.997634017484e-11       3.618725158561e-12      -8.456015877275e-15 
   67       2.386421922556e-10       3.796509650773e-14      -6.038503171471e-13       0.000000000000e+00       2.895086620424e-11       3.507503553600e-12      -8.618890047580e-15 
   68       2.419257445536e-10       3.962377906820e-14      -6.587239453684e-13       0.000000000000e+00       2.796672718418e-11       3.401005670396e-12      -8.793198501330e-15 
   69       2.452378335166e-10       4.131602743529e-14      -7.153206076804e-13       0.000000000000e+00       2.702322883792e-11       3.299171509076e-12      -8.976668872634e-15 
   70       2.485799376366e-10       4.304087486307e-14      -7.736135981259e-13       0.000000000000e+00       2.612060387113e-11       3.201968539164e-12      -9.164306812732e-15 
   71       2.519531500718e-10       4.479727172738e-14      -8.335730622977e-13       0.000000000000e+00       2.525836314329e-11       3.109275496327e-12      -9.350482850906e-15 
   72       2.553581519861e-10       4.658408383278e-14      -8.951659485535e-13       0.000000000000e+00       2.443525829549e-11       3.020877897827e-12      -9.528909133554e-15 
   73       2.587951858880e-10       4.840009071960e-14      -9.583559592312e-13       0.000000000000e+00       2.364924437833e-11       2.936463557975e-12      -9.692616163259e-15 
   74       2.622640289696e-10       5.024398397094e-14      -1.023103501863e-12       0.000000000000e+00       2.289744247974e-11       2.855618103580e-12      -9.833929537864e-15 
   75       2.657639664453e-10       5.211436551964e-14      -1.089365640391e-12       0.000000000000e+00       2.217610235284e-11       2.777820489403e-12      -9.944446689540e-15 
   76       2.692942733058e-10       5.400980228145e-14      -1.157099707744e-12       0.000000000000e+00       2.148153696914e-11       2.702572591285e-12      -1.001697153571e-14 
   77       2.728558199335e-10       5.592900529874e-14      -1.226275011947e-12       0.000000000000e+00       2.081320553816e-11       2.629825181509e-12      -1.005177714561e-14 
   78       2.764497122016e-10       5.787068034041e-14      -1.296863185962e-12       0.000000000000e+00       2.017112740564e-11       2.559621845479e-12      -1.005144814665e-14 
   79       2.800767930611e-10       5.983347394458e-14      -1.368834741571e-12       0.000000000000e+00       1.955494284368e-11       2.491970088114e-12      -1.001904074075e-14 
   80       2.837376263052e-10       6.181597288060e-14      -1.442159095669e-12       0.000000000000e+00       1.896389560869e-11       2.426839598677e-12      -9.958099591969e-15 
   81       2.874324803344e-10       6.381670361103e-14      -1.516804596555e-12       0.000000000000e+00       1.839681549936e-11       2.364160515591e-12      -9.872674714186e-15 
   82       2.911613119203e-10       6.583413175369e-14      -1.592738550235e-12       0.000000000000e+00       1.785210091465e-11       2.303821691269e-12      -9.767338358706e-15 
   83       2.949237499702e-10       6.786666154366e-14      -1.669927246705e-12       0.000000000000e+00       1.732770141172e-11       2.245668956933e-12      -9.647201901913e-15 
   84       2.987193506356e-10       6.991266384774e-14      -1.748333401837e-12       0.000000000000e+00       1.682161808738e-11       2.189545312728e-12      -9.517100977019e-15 
   85       3.025484467921e-10       7.197056672240e-14      -1.827907938147e-12       0.000000000000e+00       1.633353823943e-11       2.135422954185e-12      -9.378958664338e-15 
   86       3.064114102728e-10       7.403877895189e-14      -1.908596883327e-12       0.000000000000e+00       1.586344097837e-11       2.083290053354e-12      -9.234014104047e-15 
   87       3.103083815428e-10       7.611566277327e-14      -1.990343816619e-12       0.000000000000e+00       1.541109488803e-11       2.033109764174e-12      -9.083618252154e-15 
   88       3.142392580235e-10       7.819953381830e-14      -2.073089851676e-12       0.000000000000e+00       1.497604928640e-11       1.984819191922e-12      -8.929236789047e-15 
   89       3.182036824179e-10       8.028866105538e-14      -2.156773619421e-12       0.000000000000e+00       1.455762548656e-11       1.938328362667e-12      -8.772453028044e-15 
   90       3.222010310353e-10       8.238126673140e-14      -2.241331250905e-12       0.000000000000e+00       1.415490805752e-11       1.893519192717e-12      -8.614970823944e-15 
   91       3.262304021159e-10       8.447552631361e-14      -2.326696360166e-12       0.000000000000e+00       1.376673608513e-11       1.850244458068e-12      -8.458617481575e-15 
   92       3.302906041561e-10       8.656956843155e-14      -2.412800027085e-12       0.000000000000e+00       1.339169443298e-11       1.808326763859e-12      -8.305346664345e-15 
   93       3.343805089344e-10       8.866150113487e-14      -2.499573293550e-12       0.000000000000e+00       1.302845060704e-11       1.767600851971e-12      -8.156921663892e-15 
   94       3.385001966835e-10       9.074949531054e-14      -2.586955118605e-12       0.000000000000e+00       1.267684228667e-11       1.728050040982e-12      -8.013904400293e-15 
   95       3.426499623678e-10       9.283171376252e-14      -2.674885593628e-12       0.000000000000e+00       1.233693796172e-11       1.689688496891e-12      -7.876519037516e-15 
   96       3.468299597483e-10       9.490628631276e-14      -2.763303552765e-12       0.000000000000e+00       1.200870196108e-11       1.652519293572e-12      -7.744956614709e-15 
   97       3.510401947140e-10       9.697131010432e-14      -2.852146590283e-12       0.000000000000e+00       1.169199045769e-11       1.616533977120e-12      -7.619373567114e-15 
   98       3.552805186131e-10       9.902484990444e-14      -2.941351077933e-12       0.000000000000e+00       1.138654747342e-11       1.581712130196e-12      -7.499890246993e-15 
   99       3.595506215838e-10       1.010649384078e-13      -3.030852182308e-12       0.000000000000e+00       1.109200088399e-11       1.548020936373e-12      -7.386589444542e-15 
  100       3.638500258851e-10       1.030895765394e-13      -3.120583882196e-12       0.000000000000e+00       1.080785842397e-11       1.515414744482e-12      -7.279514908813e-15 
  101       3.681780792286e-10       1.050967337579e-13      -3.210478985944e-12       0.000000000000e+00       1.053350369164e-11       1.483834632960e-12      -7.178669868629e-15 
  102       3.725339481088e-10       1.070843483588e-13      -3.300469148814e-12       0.000000000000e+00       1.026819215395e-11       1.453207974189e-12      -7.084015553507e-15 
  103       3.769166111346e-10       1.090503277772e-13      -3.390484890340e-12       0.000000000000e+00       1.001104715147e-11       1.423447998851e-12      -6.995469714574e-15 
  104       3.813250669716e-10       1.109926065396e-13      -3.480456007806e-12       0.000000000000e+00       9.761259182112e-12       1.394474350433e-12      -6.912878755928e-15 
  105       3.857590045261e-10       1.129093283801e-13      -3.570312842894e-12       0.000000000000e+00       9.518723016263e-12       1.366278849328e-12      -6.835933026932e-15 
  106       3.902182112816e-10       1.147986894052e-13      -3.659985219299e-12       0.000000000000e+00       9.283479599329e-12       1.338867841681e-12      -6.764237276447e-15 
  107       3.947023625133e-10       1.166588835673e-13      -3.749402083338e-12       0.000000000000e+00       9.055518718414e-12       1.312241800012e-12      -6.697334272828e-15 
