# Matter power spectrum P(k) at redshift z=1
# for k=1.02819e-05 to 105.289 h/Mpc,
# number of wavenumbers equal to 624
#    1:k (h/Mpc)              2:P (Mpc/h)^3        
       1.028185622909e-05       1.519066944549e+01 
       2.292362608534e-05       3.386761493033e+01 
       3.560828760542e-05       5.260718441620e+01 
       4.836871162854e-05       7.145751805219e+01 
       6.123829341056e-05       9.046749759605e+01 
       7.425123948468e-05       1.096871699414e+02 
       8.744286337900e-05       1.291681646241e+02 
       1.008498939898e-04       1.489641384637e+02 
       1.145108004402e-04       1.691312358426e+02 
       1.284661372837e-04       1.897285802773e+02 
       1.427589139274e-04       2.108187976505e+02 
       1.574349921059e-04       2.324685751406e+02 
       1.725435151069e-04       2.547492621857e+02 
       1.881373721651e-04       2.777375158832e+02 
       2.042737009284e-04       3.015159948345e+02 
       2.210144300569e-04       3.261741023610e+02 
       2.384268627075e-04       3.518087734838e+02 
       2.565842997080e-04       3.785253097594e+02 
       2.755666984251e-04       4.064382425208e+02 
       2.954613594086e-04       4.356722166645e+02 
       3.163636275512e-04       4.663628641612e+02 
       3.383775873987e-04       4.986576358768e+02 
       3.616167230514e-04       5.327165384503e+02 
       3.862045015520e-04       5.687127097402e+02 
       4.122748246812e-04       6.068327433383e+02 
       4.399722779238e-04       6.472766496100e+02 
       4.694520878688e-04       6.902573171958e+02 
       5.008796821419e-04       7.359993138598e+02 
       5.344297319924e-04       7.847368537400e+02 
       5.702845511268e-04       8.367107537782e+02 
       6.086317309585e-04       8.921642182055e+02 
       6.496609187058e-04       9.513373557741e+02 
       6.935596970390e-04       1.014460403134e+03 
       7.405086061108e-04       1.081745795169e+03 
       7.906754593871e-04       1.153379363206e+03 
       8.442092339807e-04       1.229511161663e+03 
       9.012339445199e-04       1.310246590294e+03 
       9.618430087101e-04       1.395638611090e+03 
       1.026094651636e-03       1.485681847855e+03 
       1.094008850266e-03       1.580309309397e+03 
       1.165566182719e-03       1.679392149867e+03 
       1.240708735874e-03       1.782741807808e+03 
       1.319342979432e-03       1.890101885660e+03 
       1.401344285732e-03       2.001201865740e+03 
       1.486562608957e-03       2.115721427815e+03 
       1.574828762325e-03       2.233316175648e+03 
       1.665960749640e-03       2.353628257197e+03 
       1.759769698314e-03       2.476296057430e+03 
       1.856065072773e-03       2.600962632617e+03 
       1.954658987774e-03       2.727282428453e+03 
       2.055369565667e-03       2.854926287729e+03 
       2.158023376380e-03       2.983585088022e+03 
       2.262457060233e-03       3.112971225332e+03 
       2.368518264944e-03       3.242820720131e+03 
       2.476066036375e-03       3.372891002540e+03 
       2.584970795220e-03       3.502964089750e+03 
       2.695114015810e-03       3.632842323102e+03 
       2.806387703506e-03       3.762348558977e+03 
       2.918693747237e-03       3.891325748042e+03 
       3.031943205484e-03       4.019632465460e+03 
       3.146055568483e-03       4.147145621405e+03 
       3.260958026758e-03       4.273754099084e+03 
       3.376584766142e-03       4.399361316486e+03 
       3.492876301982e-03       4.523882459818e+03 
       3.609778859657e-03       4.647241901494e+03 
       3.727243804616e-03       4.769374756099e+03 
       3.845227122414e-03       4.890223524056e+03 
       3.963688947416e-03       5.009739798040e+03 
       4.082593137699e-03       5.127879634666e+03 
       4.201906893053e-03       5.244607856469e+03 
       4.321600412638e-03       5.359891052923e+03 
       4.441646588792e-03       5.473704829496e+03 
       4.562020733544e-03       5.586026973506e+03 
       4.682700334552e-03       5.696837456544e+03 
       4.803664837402e-03       5.806123290227e+03 
       4.924895451436e-03       5.913872011161e+03 
       5.046374976562e-03       6.020075217725e+03 
       5.168087648701e-03       6.124726688189e+03 
       5.290019001810e-03       6.227820238225e+03 
       5.412155744608e-03       6.329357281484e+03 
       5.534485650354e-03       6.429334038326e+03 
       5.656997458202e-03       6.527751053646e+03 
       5.779680784837e-03       6.624614484079e+03 
       5.902526045239e-03       6.719925842547e+03 
       6.025524381540e-03       6.813686316441e+03 
       6.148667599099e-03       6.906053262506e+03 
       6.271948108978e-03       6.996762946529e+03 
       6.395358876124e-03       7.085900157877e+03 
       6.518893372638e-03       7.173430817643e+03 
       6.642545535578e-03       7.259458413366e+03 
       6.766309728813e-03       7.344093374935e+03 
       6.890180708501e-03       7.427227581303e+03 
       7.014153591796e-03       7.508900207147e+03 
       7.138223828473e-03       7.589181042316e+03 
       7.262387175144e-03       7.667873015950e+03 
       7.386639671820e-03       7.745113169055e+03 
       7.510977620572e-03       7.820913988251e+03 
       7.635397566081e-03       7.895288983646e+03 
       7.759896277901e-03       7.968248170582e+03 
       7.884470734249e-03       8.039793435349e+03 
       8.009118107195e-03       8.109944131148e+03 
       8.133835749101e-03       8.178735196903e+03 
       8.258621180198e-03       8.246136211621e+03 
       8.383472077199e-03       8.312174705855e+03 
       8.508386262837e-03       8.376865334030e+03 
       8.633361696262e-03       8.440223831634e+03 
       8.758396464208e-03       8.502255045723e+03 
       8.883488772857e-03       8.562981464074e+03 
       9.008636940352e-03       8.622409502542e+03 
       9.133839389889e-03       8.680547008647e+03 
       9.259094643344e-03       8.737408319680e+03 
       9.384401315392e-03       8.793003889694e+03 
       9.509758108064e-03       8.847350989408e+03 
       9.635163805723e-03       8.900443783953e+03 
       9.760617270406e-03       8.952350253734e+03 
       9.886117437517e-03       9.003015673173e+03 
       1.001166331183e-02       9.052492965138e+03 
       1.013725396381e-02       9.100768759120e+03 
       1.026288852613e-02       9.147869645305e+03 
       1.038856619052e-02       9.193808659184e+03 
       1.051428620483e-02       9.238555304626e+03 
       1.064004787021e-02       9.282183381851e+03 
       1.076585053862e-02       9.324733859999e+03 
       1.089169361044e-02       9.366109016833e+03 
       1.101757653221e-02       9.406373902093e+03 
       1.114349879467e-02       9.445525565919e+03 
       1.126945993077e-02       9.483619472250e+03 
       1.139545951390e-02       9.520622218335e+03 
       1.152149715629e-02       9.556604698063e+03 
       1.164757250740e-02       9.591498805454e+03 
       1.177368525255e-02       9.625348125215e+03 
       1.189983511152e-02       9.658175586725e+03 
       1.202602183736e-02       9.689974760950e+03 
       1.215224521523e-02       9.720718856976e+03 
       1.227850506131e-02       9.750557939673e+03 
       1.240480122181e-02       9.779310317765e+03 
       1.253113357205e-02       9.807175534272e+03 
       1.265750201560e-02       9.834042480575e+03 
       1.278390648348e-02       9.859904306650e+03 
       1.291034693342e-02       9.884894962484e+03 
       1.303682334920e-02       9.908913033111e+03 
       1.316333573999e-02       9.931961779773e+03 
       1.328988413979e-02       9.954179974469e+03 
       1.341646860691e-02       9.975405521650e+03 
       1.354308922342e-02       9.995819165584e+03 
       1.366974609479e-02       1.001526679254e+04 
       1.379643934941e-02       1.003392466650e+04 
       1.392316913825e-02       1.005167976964e+04 
       1.404993563452e-02       1.006856627701e+04 
       1.417673903336e-02       1.008455753900e+04 
       1.430357955158e-02       1.009982158494e+04 
       1.443045742743e-02       1.011415626591e+04 
       1.455737292036e-02       1.012772384875e+04 
       1.468432631085e-02       1.014053188017e+04 
       1.481131790029e-02       1.015212561171e+04 
       1.493834801080e-02       1.016361600932e+04 
       1.506541698514e-02       1.017405487047e+04 
       1.519252518666e-02       1.018362303901e+04 
       1.531967299921e-02       1.019253620276e+04 
       1.544686082709e-02       1.020059456232e+04 
       1.557408909511e-02       1.020795715859e+04 
       1.570135824851e-02       1.021459652146e+04 
       1.582866875303e-02       1.022050078205e+04 
       1.595602109498e-02       1.022574687359e+04 
       1.608341578125e-02       1.023020104486e+04 
       1.621085333945e-02       1.023398192202e+04 
       1.633833431798e-02       1.023712668442e+04 
       1.646585928616e-02       1.023950722642e+04 
       1.659342883438e-02       1.024129917110e+04 
       1.672104357425e-02       1.024232538759e+04 
       1.684870413879e-02       1.024276808867e+04 
       1.697641118259e-02       1.024259862876e+04 
       1.710416538205e-02       1.024169539277e+04 
       1.723196743558e-02       1.024023273230e+04 
       1.735981806386e-02       1.023816886053e+04 
       1.748771801012e-02       1.023540050544e+04 
       1.761566804035e-02       1.023214076425e+04 
       1.774366894367e-02       1.022822923477e+04 
       1.787172153257e-02       1.022373772866e+04 
       1.799982664330e-02       1.021864236520e+04 
       1.812798513615e-02       1.021295030349e+04 
       1.825619789584e-02       1.020675563028e+04 
       1.838446583190e-02       1.019997431220e+04 
       1.851278987906e-02       1.019267556918e+04 
       1.864117099765e-02       1.018486624290e+04 
       1.876961017400e-02       1.017642935992e+04 
       1.889810842095e-02       1.016757800627e+04 
       1.902666677827e-02       1.015808943047e+04 
       1.915528631311e-02       1.014792472619e+04 
       1.928396812057e-02       1.013780312212e+04 
       1.941271332416e-02       1.012687975188e+04 
       1.954152307635e-02       1.011545788390e+04 
       1.967039855913e-02       1.010359553391e+04 
       1.979934098457e-02       1.009118687116e+04 
       1.992835159544e-02       1.007835478695e+04 
       2.005743166578e-02       1.006507772547e+04 
       2.018658250158e-02       1.005134763847e+04 
       2.031580544140e-02       1.003721029868e+04 
       2.044510185708e-02       1.002259356869e+04 
       2.057447315441e-02       1.000735306146e+04 
       2.070392077385e-02       9.991914668450e+03 
       2.083344619133e-02       9.976060452854e+03 
       2.096305091892e-02       9.960097025676e+03 
       2.109273650575e-02       9.943444741821e+03 
       2.122250453870e-02       9.926398876333e+03 
       2.135235664334e-02       9.908965131737e+03 
       2.148229448477e-02       9.891142294470e+03 
       2.161231976851e-02       9.872662228279e+03 
       2.174243424143e-02       9.854172912700e+03 
       2.187263969274e-02       9.835514133555e+03 
       2.200293795492e-02       9.816266234512e+03 
       2.213333090478e-02       9.796618011846e+03 
       2.226382046450e-02       9.776623307653e+03 
       2.239440860272e-02       9.756342221304e+03 
       2.252509733563e-02       9.735881109893e+03 
       2.265588872814e-02       9.714829559345e+03 
       2.278678489509e-02       9.693693609710e+03 
       2.291778800242e-02       9.672010270900e+03 
       2.304890026850e-02       9.650346567313e+03 
       2.318012396537e-02       9.628132709733e+03 
       2.331146142014e-02       9.605815905297e+03 
       2.344291501635e-02       9.582977131649e+03 
       2.357448719540e-02       9.559950646601e+03 
       2.370618045804e-02       9.536704073657e+03 
       2.383799736590e-02       9.513199359805e+03 
       2.396994054304e-02       9.489429086100e+03 
       2.410201267761e-02       9.465559448108e+03 
       2.423421652351e-02       9.441214695673e+03 
       2.436655490213e-02       9.416689576163e+03 
       2.449903070413e-02       9.391966795024e+03 
       2.463164689130e-02       9.366891347096e+03 
       2.476440649850e-02       9.341791000761e+03 
       2.489731263556e-02       9.316339895467e+03 
       2.503036848940e-02       9.290672731955e+03 
       2.516357732611e-02       9.264837795339e+03 
       2.529694249311e-02       9.238836682910e+03 
       2.543046742143e-02       9.212513896327e+03 
       2.556415562807e-02       9.186016004165e+03 
       2.569801071834e-02       9.159437697245e+03 
       2.583203638843e-02       9.132612990013e+03 
       2.596623642796e-02       9.105570692397e+03 
       2.610061472266e-02       9.078417117813e+03 
       2.623517525713e-02       9.051003571179e+03 
       2.636992211774e-02       9.023584907455e+03 
       2.650485949557e-02       8.995900240993e+03 
       2.663999168948e-02       8.968051158720e+03 
       2.677532310935e-02       8.940188604892e+03 
       2.691085827932e-02       8.911960380972e+03 
       2.704660184128e-02       8.883677413905e+03 
       2.718255855838e-02       8.855277571197e+03 
       2.731873331873e-02       8.826722443179e+03 
       2.745513113922e-02       8.798046180285e+03 
       2.759175716952e-02       8.769295100318e+03 
       2.772861669615e-02       8.740443112284e+03 
       2.786571514680e-02       8.711355745298e+03 
       2.800305809477e-02       8.682157017736e+03 
       2.814065126356e-02       8.652979575680e+03 
       2.827850053172e-02       8.623599947227e+03 
       2.841661193776e-02       8.594223754313e+03 
       2.855499168544e-02       8.564658918146e+03 
       2.869364614908e-02       8.534917895536e+03 
       2.883258187923e-02       8.505176567259e+03 
       2.897180560847e-02       8.475374146437e+03 
       2.911132425755e-02       8.445451109498e+03 
       2.925114494169e-02       8.415470236431e+03 
       2.939127497719e-02       8.385385573820e+03 
       2.953172188832e-02       8.355238286867e+03 
       2.967249341449e-02       8.325041891278e+03 
       2.981359751776e-02       8.294769525248e+03 
       2.995504239059e-02       8.264424988230e+03 
       3.009683646406e-02       8.234002059996e+03 
       3.023898841634e-02       8.203537029227e+03 
       3.038150718158e-02       8.173040607637e+03 
       3.052440195921e-02       8.142494951030e+03 
       3.066768222362e-02       8.111928302550e+03 
       3.081135773435e-02       8.081251582199e+03 
       3.095543854669e-02       8.050535962663e+03 
       3.109993502279e-02       8.019821101914e+03 
       3.124485784329e-02       7.989049629335e+03 
       3.139021801953e-02       7.958246802656e+03 
       3.153602690629e-02       7.927421259562e+03 
       3.168229621522e-02       7.896500176327e+03 
       3.182903802885e-02       7.865626703525e+03 
       3.197626481530e-02       7.834672760454e+03 
       3.212398944383e-02       7.803743050190e+03 
       3.227222520100e-02       7.772778789426e+03 
       3.242098580778e-02       7.741754959195e+03 
       3.257028543748e-02       7.710794819545e+03 
       3.272013873466e-02       7.679760895795e+03 
       3.287056083495e-02       7.648833734345e+03 
       3.302156738596e-02       7.617700537440e+03 
       3.317317456938e-02       7.586627982100e+03 
       3.332539912412e-02       7.555587886304e+03 
       3.347825837086e-02       7.524563650108e+03 
       3.363177023784e-02       7.493441725331e+03 
       3.378595328823e-02       7.462342914587e+03 
       3.394082674884e-02       7.431268226193e+03 
       3.409641054072e-02       7.400172194629e+03 
       3.425272531126e-02       7.369123917043e+03 
       3.440979246840e-02       7.338035022453e+03 
       3.456763421671e-02       7.306998658141e+03 
       3.472627359569e-02       7.275911576652e+03 
       3.488573452033e-02       7.244876427010e+03 
       3.504604182423e-02       7.213872798527e+03 
       3.520722130534e-02       7.182725057260e+03 
       3.536929977455e-02       7.151702561837e+03 
       3.553230510739e-02       7.120638949005e+03 
       3.569626629907e-02       7.089614569537e+03 
       3.586121352304e-02       7.058626670803e+03 
       3.602717819344e-02       7.027597202375e+03 
       3.619419303176e-02       6.996597182285e+03 
       3.636229213791e-02       6.965601613637e+03 
       3.653151106621e-02       6.934614338298e+03 
       3.670188690668e-02       6.903627704929e+03 
       3.687345837198e-02       6.872664730948e+03 
       3.704626589063e-02       6.841723871118e+03 
       3.722035170685e-02       6.810805590011e+03 
       3.739575998785e-02       6.779854002753e+03 
       3.757253693902e-02       6.748909903621e+03 
       3.775073092779e-02       6.718096603592e+03 
       3.793039261706e-02       6.687094272379e+03 
       3.811157510886e-02       6.656216379050e+03 
       3.829433409945e-02       6.625340806526e+03 
       3.847872804676e-02       6.594450830511e+03 
       3.866481835150e-02       6.563576942776e+03 
       3.885266955312e-02       6.532693922471e+03 
       3.904234954228e-02       6.501821173002e+03 
       3.923392979140e-02       6.470939203799e+03 
       3.942748560519e-02       6.440067593572e+03 
       3.962309639317e-02       6.409172558114e+03 
       3.982084596664e-02       6.378304173001e+03 
       4.002082286273e-02       6.347468053884e+03 
       4.022312069830e-02       6.316516414839e+03 
       4.042783855743e-02       6.285666999016e+03 
       4.063508141591e-02       6.254714520696e+03 
       4.084496060727e-02       6.223752475259e+03 
       4.105759433523e-02       6.192771538601e+03 
       4.127310823805e-02       6.161820041262e+03 
       4.149163601122e-02       6.130855904878e+03 
       4.171332009580e-02       6.099769264167e+03 
       4.193831244066e-02       6.068681436405e+03 
       4.216677534828e-02       6.037583703086e+03 
       4.239888241525e-02       6.006441559197e+03 
       4.263481958009e-02       5.975262625429e+03 
       4.287478629332e-02       5.943993527718e+03 
       4.311899682700e-02       5.912688698694e+03 
       4.336768174376e-02       5.881324520630e+03 
       4.362108954874e-02       5.849899415890e+03 
       4.387948855200e-02       5.818378041547e+03 
       4.414316897381e-02       5.786779089319e+03 
       4.441244533075e-02       5.755088821246e+03 
       4.468765914812e-02       5.723278704062e+03 
       4.496918205220e-02       5.691407947490e+03 
       4.525741930661e-02       5.659390535567e+03 
       4.555281386928e-02       5.627276082338e+03 
       4.585585106264e-02       5.594953310949e+03 
       4.616706396803e-02       5.562498713675e+03 
       4.648703967949e-02       5.529880174205e+03 
       4.681642658099e-02       5.497082370312e+03 
       4.715594284790e-02       5.464100794055e+03 
       4.750638641878e-02       5.430962457875e+03 
       4.786864674137e-02       5.397422313359e+03 
       4.824371866852e-02       5.363717131388e+03 
       4.863271897149e-02       5.329744073887e+03 
       4.903690605431e-02       5.295386655537e+03 
       4.945770360062e-02       5.260776912232e+03 
       4.989672907282e-02       5.225685341593e+03 
       5.035582822378e-02       5.190238552902e+03 
       5.083711708661e-02       5.154222051037e+03 
       5.134303329469e-02       5.117739268561e+03 
       5.187639906779e-02       5.080587915945e+03 
       5.244049879457e-02       5.042728900208e+03 
       5.303917484706e-02       5.004095887769e+03 
       5.367694605009e-02       4.964471057617e+03 
       5.435915399485e-02       4.923761560594e+03 
       5.509214288251e-02       4.881815261436e+03 
       5.588347825914e-02       4.838218301952e+03 
       5.674220772747e-02       4.792848768555e+03 
       5.767916028925e-02       4.744985765307e+03 
       5.870726632500e-02       4.694087890430e+03 
       5.984185044451e-02       4.639345645788e+03 
