# dimensionless total [l(l+1)/2pi] C_l's
# for l=2 to 2500, i.e. number of multipoles equal to 2499
#
# -> if you prefer output in CAMB/HealPix/LensPix units/order, set 'format' to 'camb' in input file
# -> if you don't want to see such a header, set 'headers' to 'no' in input file
# -> for CMB lensing (phi), these are C_l^phi-phi for the lensing potential.
#    Remember the conversion factors:
#    C_l^dd (deflection) = l(l+1) C_l^phi-phi
#    C_l^gg (shear/convergence) = 1/4 (l(l+1))^2 C_l^phi-phi
#
# 1:l     2:TT                     3:EE                     4:TE                     5:BB                     6:phiphi                 7:TPhi                   8:Ephi               
    2       1.319832650712e-10       6.278156590231e-15       4.008051564093e-13       0.000000000000e+00       8.040340712260e-09       4.664455693221e-10      -2.160368939209e-12 
    3       1.248453676111e-10       9.845230653814e-15       4.955334920131e-13       0.000000000000e+00       4.997165993946e-09       3.332550694598e-10      -1.838362419882e-12 
    4       1.178472030594e-10       1.057199192734e-14       5.026238067887e-13       0.000000000000e+00       3.495606815372e-09       2.542414380170e-10      -1.399211302755e-12 
    5       1.124485765082e-10       8.920806129768e-15       4.608401796717e-13       0.000000000000e+00       2.622047266196e-09       2.021746114886e-10      -9.732479627108e-13 
    6       1.086019381175e-10       6.247881243355e-15       3.964553663407e-13       0.000000000000e+00       2.056983579558e-09       1.653874096508e-10      -6.054531293291e-13 
    7       1.060135152571e-10       3.784982162105e-15       3.270813515883e-13       0.000000000000e+00       1.665838501513e-09       1.381697291845e-10      -3.150770611880e-13 
    8       1.044873325262e-10       2.134661457216e-15       2.629485520737e-13       0.000000000000e+00       1.381557487123e-09       1.173872742493e-10      -1.063791366114e-13 
    9       1.036902945622e-10       1.304011977642e-15       2.098329614305e-13       0.000000000000e+00       1.166944637332e-09       1.011300693552e-10       2.611811627314e-14 
   10       1.035092574338e-10       9.949393951602e-16       1.702953167342e-13       0.000000000000e+00       1.000055685112e-09       8.814185611424e-11       9.434785258789e-14 
   11       1.037765178745e-10       8.923817522024e-16       1.444327328347e-13       0.000000000000e+00       8.440793020219e-10       7.783439038616e-11       1.135903394040e-13 
   12       1.043841167251e-10       8.138437925069e-16       1.307568587738e-13       0.000000000000e+00       7.391259583205e-10       6.882394236899e-11       1.003008609867e-13 
   13       1.052684760109e-10       7.158582303675e-16       1.267716560068e-13       0.000000000000e+00       6.527677166205e-10       6.151820485364e-11       6.965206545709e-14 
   14       1.063926509761e-10       6.265507597797e-16       1.296197960606e-13       0.000000000000e+00       5.807736553226e-10       5.538067765059e-11       3.321981780515e-14 
   15       1.076788316035e-10       5.779812199554e-16       1.365507716572e-13       0.000000000000e+00       5.200550029973e-10       5.004965582504e-11      -4.885388656213e-16 
   16       1.090999122883e-10       5.759473834109e-16       1.452417437001e-13       0.000000000000e+00       4.683328636039e-10       4.545835051823e-11      -2.610542215856e-14 
   17       1.106303668670e-10       6.048671128003e-16       1.541213776948e-13       0.000000000000e+00       4.238862257653e-10       4.146982052278e-11      -4.160357117017e-14 
   18       1.122836547362e-10       6.450743309885e-16       1.623275910204e-13       0.000000000000e+00       3.852455544459e-10       3.800377534931e-11      -4.739910007941e-14 
   19       1.140490925625e-10       6.926406581376e-16       1.696142625208e-13       0.000000000000e+00       3.518174764995e-10       3.498980175095e-11      -4.525722446142e-14 
   20       1.158537560441e-10       7.495639943987e-16       1.759565253365e-13       0.000000000000e+00       3.223327173608e-10       3.227261846906e-11      -3.816688868986e-14 
   21       1.177149613896e-10       8.249051355562e-16       1.817220463517e-13       0.000000000000e+00       2.963401700772e-10       2.982210401525e-11      -2.866524806347e-14 
   22       1.196487732611e-10       9.296627340978e-16       1.874543913580e-13       0.000000000000e+00       2.732289917503e-10       2.761495855812e-11      -1.942917310918e-14 
   23       1.216465094823e-10       1.065877638811e-15       1.934728472239e-13       0.000000000000e+00       2.526894287758e-10       2.564990883954e-11      -1.193129183134e-14 
   24       1.236748172656e-10       1.231685661126e-15       1.999912215893e-13       0.000000000000e+00       2.342546867083e-10       2.390602356283e-11      -7.164537352825e-15 
   25       1.257452424943e-10       1.424652019958e-15       2.069828511123e-13       0.000000000000e+00       2.177130685539e-10       2.235300413408e-11      -5.164255196305e-15 
   26       1.278673602253e-10       1.641752590017e-15       2.142797059948e-13       0.000000000000e+00       2.027701871145e-10       2.094146472630e-11      -5.480614892488e-15 
   27       1.300338639494e-10       1.882226187075e-15       2.216011948562e-13       0.000000000000e+00       1.892512015834e-10       1.964735515024e-11      -7.430025545358e-15 
   28       1.322245933703e-10       2.145798084283e-15       2.285874543663e-13       0.000000000000e+00       1.769276384274e-10       1.844738371468e-11      -1.015081725603e-14 
   29       1.344468709051e-10       2.432408260834e-15       2.349352297332e-13       0.000000000000e+00       1.657388649049e-10       1.734311146353e-11      -1.302235302961e-14 
   30       1.367064182758e-10       2.741848842154e-15       2.403063242528e-13       0.000000000000e+00       1.555667707127e-10       1.633549693249e-11      -1.537688119589e-14 
   31       1.389991823831e-10       3.073994126557e-15       2.443570088858e-13       0.000000000000e+00       1.462064827562e-10       1.541665152124e-11      -1.655914122380e-14 
   32       1.413272189229e-10       3.430165986402e-15       2.469818135333e-13       0.000000000000e+00       1.376113976364e-10       1.457954866930e-11      -1.657148014858e-14 
   33       1.436862506782e-10       3.812300247701e-15       2.481619325074e-13       0.000000000000e+00       1.297225271360e-10       1.381010823205e-11      -1.567714982925e-14 
   34       1.460654647284e-10       4.222470423655e-15       2.479114721680e-13       0.000000000000e+00       1.224315521355e-10       1.308965367953e-11      -1.420863347171e-14 
   35       1.484658219662e-10       4.662384057502e-15       2.463017598723e-13       0.000000000000e+00       1.157021451159e-10       1.241570064188e-11      -1.245126339075e-14 
   36       1.508865259584e-10       5.133727852925e-15       2.434501071290e-13       0.000000000000e+00       1.094811517492e-10       1.178748707095e-11      -1.072883034813e-14 
   37       1.533235920802e-10       5.638099720892e-15       2.394757964937e-13       0.000000000000e+00       1.036886228954e-10       1.120169918262e-11      -9.362734395126e-15 
   38       1.557843038935e-10       6.176297125165e-15       2.343612203176e-13       0.000000000000e+00       9.831024541147e-11       1.065799810278e-11      -8.409466503356e-15 
   39       1.582765399808e-10       6.748785613671e-15       2.280458843683e-13       0.000000000000e+00       9.332960944651e-11       1.015477756317e-11      -7.837660005317e-15 
   40       1.608043149988e-10       7.355875504769e-15       2.204628269006e-13       0.000000000000e+00       8.870008215717e-11       9.687337335697e-12      -7.596441955773e-15 
   41       1.633678230423e-10       7.997814019214e-15       2.115386949534e-13       0.000000000000e+00       8.436119647528e-11       9.249496654239e-12      -7.615898571213e-15 
   42       1.659646939477e-10       8.675123751623e-15       2.011954361322e-13       0.000000000000e+00       8.030058306226e-11       8.839718057727e-12      -7.812303709092e-15 
   43       1.685883693068e-10       9.388356175397e-15       1.893481542018e-13       0.000000000000e+00       7.650775379253e-11       8.456520626532e-12      -8.082036863379e-15 
   44       1.712272140243e-10       1.013799453136e-14       1.759039443322e-13       0.000000000000e+00       7.295550326260e-11       8.096628401405e-12      -8.298389534075e-15 
   45       1.738693323310e-10       1.092448534676e-14       1.607776903578e-13       0.000000000000e+00       6.960970666620e-11       7.756104439187e-12      -8.343369501884e-15 
   46       1.765197380780e-10       1.174835302417e-14       1.439463747347e-13       0.000000000000e+00       6.646534701597e-11       7.434490905243e-12      -8.217692284380e-15 
   47       1.791875919981e-10       1.261011316138e-14       1.254100765597e-13       0.000000000000e+00       6.351899160631e-11       7.131665876743e-12      -7.961333838620e-15 
   48       1.818812832764e-10       1.351023861612e-14       1.051774230975e-13       0.000000000000e+00       6.075792271279e-11       6.846608818975e-12      -7.623727954888e-15 
   49       1.846083048655e-10       1.444915780401e-14       8.326598512093e-14       0.000000000000e+00       5.815944588034e-11       6.577332472956e-12      -7.264302072794e-15 
   50       1.873741298091e-10       1.542721523938e-14       5.969476492114e-14       0.000000000000e+00       5.569777006862e-11       6.321544003287e-12      -6.941365626996e-15 
   51       1.901787699055e-10       1.644454448006e-14       3.445833931555e-14       0.000000000000e+00       5.336845450554e-11       6.078998029773e-12      -6.673976261645e-15 
   52       1.930190674070e-10       1.750115775267e-14       7.546381420339e-15       0.000000000000e+00       5.116940198963e-11       5.849664563199e-12      -6.470648821890e-15 
   53       1.958894447458e-10       1.859697729884e-14      -2.104902277151e-14       0.000000000000e+00       4.909353957634e-11       5.633022575746e-12      -6.340086132296e-15 
   54       1.987817328383e-10       1.973183189629e-14      -5.133335116030e-14       0.000000000000e+00       4.712848318897e-11       5.428026206727e-12      -6.291166696685e-15 
   55       2.016879954616e-10       2.090551486891e-14      -8.331217898296e-14       0.000000000000e+00       4.526034025936e-11       5.233429249166e-12      -6.329522260297e-15 
   56       2.046102173621e-10       2.211798296258e-14      -1.169995693625e-13       0.000000000000e+00       4.348699221845e-11       5.048930425162e-12      -6.446303056515e-15 
   57       2.075527221417e-10       2.336920078069e-14      -1.524117264622e-13       0.000000000000e+00       4.180752420120e-11       4.874253428215e-12      -6.626600061554e-15 
   58       2.105193332781e-10       2.465908256403e-14      -1.895646961523e-13       0.000000000000e+00       4.021820573633e-11       4.708794165969e-12      -6.852468602605e-15 
   59       2.135133191589e-10       2.598749110750e-14      -2.284744423906e-13       0.000000000000e+00       3.871231657913e-11       4.551600924944e-12      -7.102783195172e-15 
   60       2.165373381152e-10       2.735423667679e-14      -2.691569236036e-13       0.000000000000e+00       3.727997254438e-11       4.401354535275e-12      -7.353092380415e-15 
   61       2.195934462819e-10       2.875907028881e-14      -3.116255177851e-13       0.000000000000e+00       3.591088439657e-11       4.256736791925e-12      -7.581120246693e-15 
   62       2.226832475895e-10       3.020166424082e-14      -3.558824496147e-13       0.000000000000e+00       3.460375218125e-11       4.117677226626e-12      -7.785042417013e-15 
   63       2.258076800546e-10       3.168162526866e-14      -4.019255658460e-13       0.000000000000e+00       3.335868008603e-11       3.984352262850e-12      -7.969073378634e-15 
   64       2.289669040007e-10       3.319849856031e-14      -4.497508091969e-13       0.000000000000e+00       3.217434995818e-11       3.856814286636e-12      -8.138215117350e-15 
   65       2.321602490854e-10       3.475176649386e-14      -4.993522106076e-13       0.000000000000e+00       3.104794020125e-11       3.734984130413e-12      -8.298291119842e-15 
   66       2.353861613283e-10       3.634084737532e-14      -5.507218814979e-13       0.000000000000e+00       2.997504467162e-11       3.618643556813e-12      -8.455980376049e-15 
   67       2.386421501375e-10       3.796509417654e-14      -6.038500060248e-13       0.000000000000e+00       2.894959157505e-11       3.507427742498e-12      -8.618851381516e-15 
   68       2.419257654967e-10       3.962377643006e-14      -6.587232311403e-13       0.000000000000e+00       2.796547231146e-11       3.400936270455e-12      -8.793157135638e-15 
   69       2.452378778613e-10       4.131602447471e-14      -7.153194752609e-13       0.000000000000e+00       2.702199255667e-11       3.299109023614e-12      -8.976625307124e-15 
   70       2.485799707463e-10       4.304087159348e-14      -7.736120489561e-13       0.000000000000e+00       2.611938509056e-11       3.201913304738e-12      -9.164261537281e-15 
   71       2.519531432218e-10       4.479726819448e-14      -8.335711162301e-13       0.000000000000e+00       2.525716087667e-11       3.109227662211e-12      -9.350436340021e-15 
   72       2.553580832867e-10       4.658408011799e-14      -8.951636458032e-13       0.000000000000e+00       2.443407169145e-11       3.020837404767e-12      -9.528861840686e-15 
   73       2.587950412432e-10       4.840008694366e-14      -9.583533623916e-13       0.000000000000e+00       2.364807275355e-11       2.936430116213e-12      -9.692568514877e-15 
   74       2.622638030704e-10       5.024398029758e-14      -1.023100697989e-12       0.000000000000e+00       2.289628535303e-11       2.855591170158e-12      -9.833881927281e-15 
   75       2.657636637990e-10       5.211436215940e-14      -1.089362743145e-12       0.000000000000e+00       2.217495948067e-11       2.777799244741e-12      -9.944399470499e-15 
   76       2.692939072411e-10       5.400979947723e-14      -1.157096850933e-12       0.000000000000e+00       2.148040832170e-11       2.702555984116e-12      -1.001692502050e-14 
   77       2.728554050351e-10       5.592900325217e-14      -1.226272315273e-12       0.000000000000e+00       2.081209108169e-11       2.629812194864e-12      -1.005173161832e-14 
   78       2.764492621754e-10       5.787067918684e-14      -1.296860743584e-12       0.000000000000e+00       2.017002704553e-11       2.559611580804e-12      -1.005140386361e-14 
   79       2.800763205448e-10       5.983347374514e-14      -1.368832618786e-12       0.000000000000e+00       1.955385642547e-11       2.491961784560e-12      -1.001899792628e-14 
   80       2.837371426714e-10       6.181597361407e-14      -1.442157325484e-12       0.000000000000e+00       1.896282291915e-11       2.426832653079e-12      -9.958058434036e-15 
   81       2.874319954860e-10       6.381670516545e-14      -1.516803176143e-12       0.000000000000e+00       1.839575626779e-11       2.364154503146e-12      -9.872635359834e-15 
   82       2.911608340798e-10       6.583413391768e-14      -1.592737437277e-12       0.000000000000e+00       1.785105481428e-11       2.303816386899e-12      -9.767300909400e-15 
   83       2.949232854613e-10       6.786666399750e-14      -1.669926355627e-12       0.000000000000e+00       1.732666806135e-11       2.245664357342e-12      -9.647166408713e-15 
   84       2.987189038889e-10       6.991266618398e-14      -1.748332610386e-12       0.000000000000e+00       1.682059706272e-11       2.189541610695e-12      -9.517067446447e-15 
   85       3.025480210811e-10       7.197056856112e-14      -1.827907127226e-12       0.000000000000e+00       1.633252911550e-11       2.135420358937e-12      -9.378927098678e-15 
   86       3.064110078282e-10       7.403877997655e-14      -1.908595948909e-12       0.000000000000e+00       1.586244334637e-11       2.083288740493e-12      -9.233984512674e-15 
   87       3.103080034428e-10       7.611566273849e-14      -1.990342671750e-12       0.000000000000e+00       1.541010836326e-11       2.033109871668e-12      -9.083590652576e-15 
   88       3.142389040819e-10       7.819953255784e-14      -2.073088428548e-12       0.000000000000e+00       1.497507351657e-11       1.984820815978e-12      -8.929211207979e-15 
   89       3.182033510679e-10       8.028865849036e-14      -2.156771871502e-12       0.000000000000e+00       1.455666016034e-11       1.938331553474e-12      -8.772429502517e-15 
   90       3.222007192107e-10       8.238126287875e-14      -2.241329155138e-12       0.000000000000e+00       1.415395291349e-11       1.893523950073e-12      -8.614949402454e-15 
   91       3.262301051291e-10       8.447552129481e-14      -2.326693919226e-12       0.000000000000e+00       1.376579092100e-11       1.850250726882e-12      -8.458598225260e-15 
   92       3.302903155724e-10       8.656956248155e-14      -2.412797271706e-12       0.000000000000e+00       1.339075911511e-11       1.808334429527e-12      -8.305329648205e-15 
   93       3.343802209005e-10       8.866149458458e-14      -2.499570278934e-12       0.000000000000e+00       1.302752506229e-11       1.767609747086e-12      -8.156906971193e-15 
   94       3.384999017037e-10       9.074948848486e-14      -2.586951901945e-12       0.000000000000e+00       1.267592643725e-11       1.728059988233e-12      -8.013892095290e-15 
   95       3.426496538450e-10       9.283170695053e-14      -2.674882227784e-12       0.000000000000e+00       1.233603170894e-11       1.689699321014e-12      -7.876509156647e-15 
   96       3.468296320904e-10       9.490627976331e-14      -2.763300085641e-12       0.000000000000e+00       1.200780518658e-11       1.652530822367e-12      -7.744949164285e-15 
   97       3.510398434436e-10       9.697130402151e-14      -2.852143064189e-12       0.000000000000e+00       1.169110302460e-11       1.616546042502e-12      -7.619368520962e-15 
   98       3.552801404797e-10       9.902484444302e-14      -2.941347528928e-12       0.000000000000e+00       1.138566922767e-11       1.581724569281e-12      -7.499887544027e-15 
   99       3.595502146795e-10       1.010649336683e-13      -3.030848639518e-12       0.000000000000e+00       1.109113165573e-11       1.548033592600e-12      -7.386588986283e-15 
  100       3.638495897633e-10       1.030895725634e-13      -3.120580367125e-12       0.000000000000e+00       1.080699802892e-11       1.515427468765e-12      -7.279516556849e-15 
  101       3.681776150253e-10       1.050967305230e-13      -3.210475511757e-12       0.000000000000e+00       1.053265193267e-11       1.483847284877e-12      -7.178673442019e-15 
  102       3.725334586675e-10       1.070843457732e-13      -3.300465719605e-12       0.000000000000e+00       1.026734882262e-11       1.453220423210e-12      -7.084020826121e-15 
  103       3.769161011340e-10       1.090503256748e-13      -3.390481500384e-12       0.000000000000e+00       1.001021202970e-11       1.423460125589e-12      -6.995476412382e-15 
  104       3.813245426341e-10       1.109926046913e-13      -3.480452642797e-12       0.000000000000e+00       9.760432045145e-12       1.394486047382e-12      -6.912886565841e-15 
  105       3.857584719978e-10       1.129093265593e-13      -3.570309487522e-12       0.000000000000e+00       9.517903639721e-12       1.366290019870e-12      -6.835941642246e-15 
  106       3.902176761664e-10       1.147986874062e-13      -3.659981859311e-12       0.000000000000e+00       9.282667762882e-12       1.338878400652e-12      -6.764246410541e-15 
  107       3.947018298117e-10       1.166588812077e-13      -3.749398705678e-12       0.000000000000e+00       9.054714208311e-12       1.312251674825e-12      -6.697343661760e-15 
