# dimensionless total [l(l+1)/2pi] C_l's
# for l=2 to 2500, i.e. number of multipoles equal to 2499
#
# -> if you prefer output in CAMB/HealPix/LensPix units/order, set 'format' to 'camb' in input file
# -> if you don't want to see such a header, set 'headers' to 'no' in input file
# -> for CMB lensing (phi), these are C_l^phi-phi for the lensing potential.
#    Remember the conversion factors:
#    C_l^dd (deflection) = l(l+1) C_l^phi-phi
#    C_l^gg (shear/convergence) = 1/4 (l(l+1))^2 C_l^phi-phi
#
# 1:l     2:TT                     3:EE                     4:TE                     5:BB                     6:phiphi                 7:TPhi                   8:Ephi               
    2       1.319832650712e-10       6.278156590231e-15       4.008051564093e-13       0.000000000000e+00       8.040341707613e-09       4.664456265745e-10      -2.160368962802e-12 
    3       1.248453676111e-10       9.845230653814e-15       4.955334920131e-13       0.000000000000e+00       4.997167356144e-09       3.332551499812e-10      -1.838362432689e-12 
    4       1.178472030594e-10       1.057199192734e-14       5.026238067887e-13       0.000000000000e+00       3.495608521629e-09       2.542415406336e-10      -1.399211292654e-12 
    5       1.124485765082e-10       8.920806129768e-15       4.608401796717e-13       0.000000000000e+00       2.622049284176e-09       2.021747334017e-10      -9.732479301844e-13 
    6       1.086019381175e-10       6.247881243355e-15       3.964553663407e-13       0.000000000000e+00       2.056985889640e-09       1.653875498872e-10      -6.054530793093e-13 
    7       1.060135152571e-10       3.784982162105e-15       3.270813515883e-13       0.000000000000e+00       1.665841097432e-09       1.381698866511e-10      -3.150770000532e-13 
    8       1.044873325262e-10       2.134661457216e-15       2.629485520737e-13       0.000000000000e+00       1.381560357693e-09       1.173874477251e-10      -1.063790720127e-13 
    9       1.036902945622e-10       1.304011977642e-15       2.098329614305e-13       0.000000000000e+00       1.166947762612e-09       1.011302597812e-10       2.611817641408e-14 
   10       1.035092574338e-10       9.949393951602e-16       1.702953167342e-13       0.000000000000e+00       1.000059046643e-09       8.814206051869e-11       9.434790321817e-14 
   11       1.037765178745e-10       8.923817522024e-16       1.444327328347e-13       0.000000000000e+00       8.440828185447e-10       7.783434403292e-11       1.135904913073e-13 
   12       1.043841167251e-10       8.138437925069e-16       1.307568587738e-13       0.000000000000e+00       7.391297608482e-10       6.882435499050e-11       1.003007315403e-13 
   13       1.052684760109e-10       7.158582303675e-16       1.267716560068e-13       0.000000000000e+00       6.527717611895e-10       6.151835335563e-11       6.965236029764e-14 
   14       1.063926509761e-10       6.265507597797e-16       1.296197960606e-13       0.000000000000e+00       5.807775782129e-10       5.538077807425e-11       3.321956959059e-14 
   15       1.076788316035e-10       5.779812199554e-16       1.365507716572e-13       0.000000000000e+00       5.200593223426e-10       5.005028873865e-11      -4.884349241587e-16 
   16       1.090999122883e-10       5.759473834109e-16       1.452417437001e-13       0.000000000000e+00       4.683374969028e-10       4.545818705526e-11      -2.610540760890e-14 
   17       1.106303668670e-10       6.048671128003e-16       1.541213776948e-13       0.000000000000e+00       4.238907675768e-10       4.147044157517e-11      -4.160373411306e-14 
   18       1.122836547362e-10       6.450743309885e-16       1.623275910204e-13       0.000000000000e+00       3.852501029472e-10       3.800470944388e-11      -4.739939977961e-14 
   19       1.140490925625e-10       6.926406581376e-16       1.696142625208e-13       0.000000000000e+00       3.518221703444e-10       3.499027289774e-11      -4.525761279618e-14 
   20       1.158537560441e-10       7.495639943987e-16       1.759565253365e-13       0.000000000000e+00       3.223375283695e-10       3.227277781194e-11      -3.816724162876e-14 
   21       1.177149613896e-10       8.249051355562e-16       1.817220463517e-13       0.000000000000e+00       2.963450788905e-10       2.982218795121e-11      -2.866546361372e-14 
   22       1.196487732611e-10       9.296627340978e-16       1.874543913580e-13       0.000000000000e+00       2.732340362565e-10       2.761501077817e-11      -1.942921494726e-14 
   23       1.216465094823e-10       1.065877638811e-15       1.934728472239e-13       0.000000000000e+00       2.526946087249e-10       2.564995917983e-11      -1.193117854087e-14 
   24       1.236748172656e-10       1.231685661126e-15       1.999912215893e-13       0.000000000000e+00       2.342599388687e-10       2.390613690870e-11      -7.164340643716e-15 
   25       1.257452424943e-10       1.424652019958e-15       2.069828511123e-13       0.000000000000e+00       2.177183502162e-10       2.235322047505e-11      -5.164068900467e-15 
   26       1.278673602253e-10       1.641752590017e-15       2.142797059948e-13       0.000000000000e+00       2.027754966243e-10       2.094177634823e-11      -5.480526726182e-15 
   27       1.300338639494e-10       1.882226187075e-15       2.216011948562e-13       0.000000000000e+00       1.892565174401e-10       1.964772380625e-11      -7.430034208357e-15 
   28       1.322245933703e-10       2.145798084283e-15       2.285874543663e-13       0.000000000000e+00       1.769329078801e-10       1.844775143354e-11      -1.015081841958e-14 
   29       1.344468709051e-10       2.432408260834e-15       2.349352297332e-13       0.000000000000e+00       1.657440624427e-10       1.734343949628e-11      -1.302226897419e-14 
   30       1.367064182758e-10       2.741848842154e-15       2.403063242528e-13       0.000000000000e+00       1.555719248794e-10       1.633578512669e-11      -1.537671557421e-14 
   31       1.389991823831e-10       3.073994126557e-15       2.443570088858e-13       0.000000000000e+00       1.462116704980e-10       1.541693722460e-11      -1.655897655303e-14 
   32       1.413272189229e-10       3.430165986402e-15       2.469818135333e-13       0.000000000000e+00       1.376166695614e-10       1.457986119393e-11      -1.657138108129e-14 
   33       1.436862506782e-10       3.812300247701e-15       2.481619325074e-13       0.000000000000e+00       1.297278746879e-10       1.381045070155e-11      -1.567712445977e-14 
   34       1.460654647284e-10       4.222470423655e-15       2.479114721680e-13       0.000000000000e+00       1.224369098352e-10       1.309000401912e-11      -1.420863507448e-14 
   35       1.484658219662e-10       4.662384057502e-15       2.463017598723e-13       0.000000000000e+00       1.157074569064e-10       1.241604108471e-11      -1.245125212528e-14 
   36       1.508865259584e-10       5.133727852925e-15       2.434501071290e-13       0.000000000000e+00       1.094863959006e-10       1.178781523463e-11      -1.072879617021e-14 
   37       1.533235920802e-10       5.638099720892e-15       2.394757964937e-13       0.000000000000e+00       1.036938117611e-10       1.120202741240e-11      -9.362696652543e-15 
   38       1.557843038935e-10       6.176297125165e-15       2.343612203176e-13       0.000000000000e+00       9.831539475762e-11       1.065833739763e-11      -8.409445851042e-15 
   39       1.582765399808e-10       6.748785613671e-15       2.280458843683e-13       0.000000000000e+00       9.333472833281e-11       1.015513185741e-11      -7.837669014837e-15 
   40       1.608043149988e-10       7.355875504769e-15       2.204628269006e-13       0.000000000000e+00       8.870517076258e-11       9.687701762764e-12      -7.596482951306e-15 
   41       1.633678230423e-10       7.997814019214e-15       2.115386949534e-13       0.000000000000e+00       8.436624625447e-11       9.249858438537e-12      -7.615963899333e-15 
   42       1.659646939477e-10       8.675123751623e-15       2.011954361322e-13       0.000000000000e+00       8.030558518334e-11       8.840066590500e-12      -7.812384608309e-15 
   43       1.685883693068e-10       9.388356175397e-15       1.893481542018e-13       0.000000000000e+00       7.651270172553e-11       8.456851157582e-12      -8.082126291556e-15 
   44       1.712272140243e-10       1.013799453136e-14       1.759039443322e-13       0.000000000000e+00       7.296039312729e-11       8.096943322339e-12      -8.298482692845e-15 
   45       1.738693323310e-10       1.092448534676e-14       1.607776903578e-13       0.000000000000e+00       6.961453702239e-11       7.756412937282e-12      -8.343463992628e-15 
   46       1.765197380780e-10       1.174835302417e-14       1.439463747347e-13       0.000000000000e+00       6.647011674828e-11       7.434802970076e-12      -8.217786947971e-15 
   47       1.791875919981e-10       1.261011316138e-14       1.254100765597e-13       0.000000000000e+00       6.352369916937e-11       7.131990394405e-12      -7.961428575366e-15 
   48       1.818812832764e-10       1.351023861612e-14       1.051774230975e-13       0.000000000000e+00       6.076256588075e-11       6.846953202734e-12      -7.623823922863e-15 
   49       1.846083048655e-10       1.444915780401e-14       8.326598512093e-14       0.000000000000e+00       5.816402147799e-11       6.577702271365e-12      -7.264401896788e-15 
   50       1.873741298091e-10       1.542721523938e-14       5.969476492114e-14       0.000000000000e+00       5.570227407768e-11       6.321942302545e-12      -6.941472956783e-15 
   51       1.901787699055e-10       1.644454448006e-14       3.445833931555e-14       0.000000000000e+00       5.337288346004e-11       6.079424225380e-12      -6.674093145340e-15 
   52       1.930190674070e-10       1.750115775267e-14       7.546381420339e-15       0.000000000000e+00       5.117375340007e-11       5.850113552119e-12      -6.470774689501e-15 
   53       1.958894447458e-10       1.859697729884e-14      -2.104902277151e-14       0.000000000000e+00       4.909781199067e-11       5.633484086330e-12      -6.340217368725e-15 
   54       1.987817328383e-10       1.973183189629e-14      -5.133335116030e-14       0.000000000000e+00       4.713267625351e-11       5.428484097462e-12      -6.291296194229e-15 
   55       2.016879954616e-10       2.090551486891e-14      -8.331217898296e-14       0.000000000000e+00       4.526445457382e-11       5.233862702743e-12      -6.329640035807e-15 
   56       2.046102173621e-10       2.211798296258e-14      -1.169995693625e-13       0.000000000000e+00       4.349102851319e-11       5.049321451362e-12      -6.446400419227e-15 
   57       2.075527221417e-10       2.336920078069e-14      -1.524117264622e-13       0.000000000000e+00       4.181148302390e-11       4.874589570603e-12      -6.626671076404e-15 
   58       2.105193332781e-10       2.465908256403e-14      -1.895646961523e-13       0.000000000000e+00       4.022208732194e-11       4.709069462302e-12      -6.852510566954e-15 
   59       2.135133191589e-10       2.598749110750e-14      -2.284744423906e-13       0.000000000000e+00       3.871612071187e-11       4.551816911459e-12      -7.102797137321e-15 
   60       2.165373381152e-10       2.735423667679e-14      -2.691569236036e-13       0.000000000000e+00       3.728369841167e-11       4.401521294843e-12      -7.353083579886e-15 
   61       2.195934462819e-10       2.875907028881e-14      -3.116255177851e-13       0.000000000000e+00       3.591453065907e-11       4.256871948156e-12      -7.581097663209e-15 
   62       2.226832475895e-10       3.020166424082e-14      -3.558824496147e-13       0.000000000000e+00       3.460731776628e-11       4.117798137766e-12      -7.785014510058e-15 
   63       2.258076800546e-10       3.168162526866e-14      -4.019255658460e-13       0.000000000000e+00       3.336216440645e-11       3.984473560416e-12      -7.969046761216e-15 
   64       2.289669040007e-10       3.319849856031e-14      -4.497508091969e-13       0.000000000000e+00       3.217775292062e-11       3.856947355048e-12      -8.138194238076e-15 
   65       2.321602490854e-10       3.475176649386e-14      -4.993522106076e-13       0.000000000000e+00       3.105126221339e-11       3.735136563931e-12      -8.298277931467e-15 
   66       2.353861613283e-10       3.634084737532e-14      -5.507218814979e-13       0.000000000000e+00       2.997828664856e-11       3.618818593790e-12      -8.455973990462e-15 
   67       2.386421501375e-10       3.796509417654e-14      -6.038500060248e-13       0.000000000000e+00       2.895275494477e-11       3.507623676932e-12      -8.618847711209e-15 
   68       2.419257654967e-10       3.962377643006e-14      -6.587232311403e-13       0.000000000000e+00       2.796855893330e-11       3.401146934838e-12      -8.793149420623e-15 
   69       2.452378778613e-10       4.131602447471e-14      -7.153194752609e-13       0.000000000000e+00       2.702500436043e-11       3.299327788430e-12      -8.976607536884e-15 
   70       2.485799707463e-10       4.304087159348e-14      -7.736120489561e-13       0.000000000000e+00       2.612232393642e-11       3.202134236385e-12      -9.164229542673e-15 
   71       2.519531432218e-10       4.479726819448e-14      -8.335711162301e-13       0.000000000000e+00       2.526002849319e-11       3.109445655183e-12      -9.350388047354e-15 
   72       2.553580832867e-10       4.658408011799e-14      -8.951636458032e-13       0.000000000000e+00       2.443686961045e-11       3.021048319123e-12      -9.528797535254e-15 
   73       2.587950412432e-10       4.840008694366e-14      -9.583533623916e-13       0.000000000000e+00       2.365080224185e-11       2.936630920337e-12      -9.692491113939e-15 
   74       2.622638030704e-10       5.024398029758e-14      -1.023100697989e-12       0.000000000000e+00       2.289894734110e-11       2.855780088803e-12      -9.833797262499e-15 
   75       2.657636637990e-10       5.211436215940e-14      -1.089362743145e-12       0.000000000000e+00       2.217755448817e-11       2.777975912361e-12      -9.944316579823e-15 
   76       2.692939072411e-10       5.400979947723e-14      -1.157096850933e-12       0.000000000000e+00       2.148293651126e-11       2.702721311837e-12      -1.001685546826e-14 
   77       2.728554050351e-10       5.592900325217e-14      -1.226272315273e-12       0.000000000000e+00       2.081455273147e-11       2.629967306412e-12      -1.005168567446e-14 
   78       2.764492621754e-10       5.787067918684e-14      -1.296860743584e-12       0.000000000000e+00       2.017242267410e-11       2.559757518507e-12      -1.005138926552e-14 
   79       2.800763205448e-10       5.983347374514e-14      -1.368832618786e-12       0.000000000000e+00       1.955618679160e-11       2.492099491263e-12      -1.001901956060e-14 
   80       2.837371426714e-10       6.181597361407e-14      -1.442157325484e-12       0.000000000000e+00       1.896508902130e-11       2.426962953364e-12      -9.958118007771e-15 
   81       2.874319954860e-10       6.381670516545e-14      -1.516803176143e-12       0.000000000000e+00       1.839795934306e-11       2.364278083857e-12      -9.872731060815e-15 
   82       2.911608340798e-10       6.583413391768e-14      -1.592737437277e-12       0.000000000000e+00       1.785319633702e-11       2.303933776973e-12      -9.767427056054e-15 
   83       2.949232854613e-10       6.786666399750e-14      -1.669926355627e-12       0.000000000000e+00       1.732874974131e-11       2.245775906954e-12      -9.647313089180e-15 
   84       2.987189038889e-10       6.991266618398e-14      -1.748332610386e-12       0.000000000000e+00       1.682262080701e-11       2.189647513644e-12      -9.517221227744e-15 
   85       3.025480210811e-10       7.197056856112e-14      -1.827907127226e-12       0.000000000000e+00       1.633449687574e-11       2.135520814554e-12      -9.379075173211e-15 
   86       3.064110078282e-10       7.403877997655e-14      -1.908595948909e-12       0.000000000000e+00       1.586435706076e-11       2.083383997994e-12      -9.234115960334e-15 
   87       3.103080034428e-10       7.611566273849e-14      -1.990342671750e-12       0.000000000000e+00       1.541196993178e-11       2.033200232670e-12      -9.083696680152e-15 
   88       3.142389040819e-10       7.819953255784e-14      -2.073088428548e-12       0.000000000000e+00       1.497688477510e-11       1.984906637056e-12      -8.929285396075e-15 
   89       3.182033510679e-10       8.028865849036e-14      -2.156771871502e-12       0.000000000000e+00       1.455842285385e-11       1.938413248768e-12      -8.772468059960e-15 
   90       3.222007192107e-10       8.238126287875e-14      -2.241329155138e-12       0.000000000000e+00       1.415566866811e-11       1.893601993936e-12      -8.614951428189e-15 
   91       3.262301051291e-10       8.447552129481e-14      -2.326693919226e-12       0.000000000000e+00       1.376746121517e-11       1.850325656578e-12      -8.458565977751e-15 
   92       3.302903155724e-10       8.656956248155e-14      -2.412797271706e-12       0.000000000000e+00       1.339238524962e-11       1.808406847970e-12      -8.305268822322e-15 
   93       3.343802209005e-10       8.866149458458e-14      -2.499570278934e-12       0.000000000000e+00       1.302910817770e-11       1.767680304193e-12      -8.156826210659e-15 
   94       3.384999017037e-10       9.074948848486e-14      -2.586951901945e-12       0.000000000000e+00       1.267746768347e-11       1.728129294317e-12      -8.013800064015e-15 
   95       3.426496538450e-10       9.283170695053e-14      -2.674882227784e-12       0.000000000000e+00       1.233753228376e-11       1.689767917952e-12      -7.876413696181e-15 
   96       3.468296320904e-10       9.490627976331e-14      -2.763300085641e-12       0.000000000000e+00       1.200926632751e-11       1.652599175047e-12      -7.744857187431e-15 
   97       3.510398434436e-10       9.697130402151e-14      -2.852143064189e-12       0.000000000000e+00       1.169252600041e-11       1.616614530022e-12      -7.619285902283e-15 
   98       3.552801404797e-10       9.902484444302e-14      -2.941347528928e-12       0.000000000000e+00       1.138705532954e-11       1.581793475900e-12      -7.499819007258e-15 
   99       3.595502146795e-10       1.010649336683e-13      -3.030848639518e-12       0.000000000000e+00       1.109248218802e-11       1.548103098437e-12      -7.386537988635e-15 
  100       3.638495897633e-10       1.030895725634e-13      -3.120580367125e-12       0.000000000000e+00       1.080831429964e-11       1.515497640256e-12      -7.279485170213e-15 
  101       3.681776150253e-10       1.050967305230e-13      -3.210475511757e-12       0.000000000000e+00       1.053393524356e-11       1.483918064976e-12      -7.178662231066e-15 
  102       3.725334586675e-10       1.070843457732e-13      -3.300465719605e-12       0.000000000000e+00       1.026860045888e-11       1.453291621346e-12      -7.084028723304e-15 
  103       3.769161011340e-10       1.090503256748e-13      -3.390481500384e-12       0.000000000000e+00       1.001143324933e-11       1.423531407374e-12      -6.995500589829e-15 
  104       3.813245426341e-10       1.109926046913e-13      -3.480452642797e-12       0.000000000000e+00       9.761624076923e-12       1.394556959323e-12      -6.912922693093e-15 
  105       3.857584719978e-10       1.129093265593e-13      -3.570309487522e-12       0.000000000000e+00       9.519067708764e-12       1.366360125019e-12      -6.835985367529e-15 
  106       3.902176761664e-10       1.147986874062e-13      -3.659981859311e-12       0.000000000000e+00       9.283805091679e-12       1.338947317911e-12      -6.764293778773e-15 
  107       3.947018298117e-10       1.166588812077e-13      -3.749398705678e-12       0.000000000000e+00       9.055826008908e-12       1.312319084474e-12      -6.697391159528e-15 
